WaveLength(nm) ,Level(dBm)
730.00000      ,-75.200       
730.13000      ,-77.922       
730.26000      ,-77.968       
730.39000      ,-77.635       
730.52000      ,-81.193       
730.65000      ,-77.239       
730.78000      ,-76.534       
730.91000      ,-79.641       
731.04000      ,-76.506       
731.17000      ,-78.171       
731.30000      ,-80.462       
731.43000      ,-76.538       
731.56000      ,-81.390       
731.69000      ,-77.980       
731.82000      ,-75.542       
731.95000      ,-77.878       
732.08000      ,-75.272       
732.21000      ,-80.029       
732.34000      ,-76.309       
732.47000      ,-76.533       
732.60000      ,-78.549       
732.73000      ,-78.568       
732.86000      ,-75.815       
732.99000      ,-76.378       
733.12000      ,-75.933       
733.25000      ,-77.179       
733.38000      ,-77.090       
733.51000      ,-75.643       
733.64000      ,-81.125       
733.77000      ,-76.496       
733.90000      ,-78.157       
734.03000      ,-81.582       
734.16000      ,-79.941       
734.29000      ,-77.524       
734.42000      ,-77.916       
734.55000      ,-78.169       
734.68000      ,-77.324       
734.81000      ,-76.595       
734.94000      ,-78.452       
735.07000      ,-77.711       
735.20000      ,-77.200       
735.33000      ,-80.882       
735.46000      ,-77.631       
735.59000      ,-80.349       
735.72000      ,-76.831       
735.85000      ,-79.931       
735.98000      ,-77.065       
736.11000      ,-75.829       
736.24000      ,-76.622       
736.37000      ,-79.939       
736.50000      ,-76.509       
736.63000      ,-77.423       
736.76000      ,-78.240       
736.89000      ,-78.643       
737.02000      ,-77.742       
737.15000      ,-78.793       
737.28000      ,-77.559       
737.41000      ,-79.077       
737.54000      ,-78.378       
737.67000      ,-77.766       
737.80000      ,-81.962       
737.93000      ,-79.121       
738.06000      ,-77.288       
738.19000      ,-77.106       
738.32000      ,-78.692       
738.45000      ,-76.056       
738.58000      ,-78.856       
738.71000      ,-78.734       
738.84000      ,-76.377       
738.97000      ,-74.690       
739.10000      ,-81.680       
739.23000      ,-81.010       
739.36000      ,-79.987       
739.49000      ,-77.262       
739.62000      ,-77.464       
739.75000      ,-76.708       
739.88000      ,-79.559       
740.01000      ,-77.021       
740.14000      ,-80.928       
740.27000      ,-77.879       
740.40000      ,-77.952       
740.53000      ,-77.957       
740.66000      ,-76.751       
740.79000      ,-77.779       
740.92000      ,-76.360       
741.05000      ,-79.013       
741.18000      ,-76.691       
741.31000      ,-82.125       
741.44000      ,-78.460       
741.57000      ,-80.348       
741.70000      ,-78.490       
741.83000      ,-76.820       
741.96000      ,-79.172       
742.09000      ,-80.904       
742.22000      ,-76.880       
742.35000      ,-75.708       
742.48000      ,-77.157       
742.61000      ,-75.394       
742.74000      ,-77.872       
742.87000      ,-79.658       
743.00000      ,-79.290       
743.13000      ,-77.454       
743.26000      ,-78.604       
743.39000      ,-77.111       
743.52000      ,-80.313       
743.65000      ,-78.320       
743.78000      ,-75.713       
743.91000      ,-79.115       
744.04000      ,-79.783       
744.17000      ,-76.670       
744.30000      ,-79.302       
744.43000      ,-76.588       
744.56000      ,-78.114       
744.69000      ,-77.239       
744.82000      ,-80.563       
744.95000      ,-79.739       
745.08000      ,-77.913       
745.21000      ,-76.754       
745.34000      ,-76.938       
745.47000      ,-80.354       
745.60000      ,-76.903       
745.73000      ,-80.275       
745.86000      ,-77.056       
745.99000      ,-77.762       
746.12000      ,-77.476       
746.25000      ,-77.386       
746.38000      ,-84.192       
746.51000      ,-78.481       
746.64000      ,-78.756       
746.77000      ,-79.285       
746.90000      ,-82.401       
747.03000      ,-77.126       
747.16000      ,-77.573       
747.29000      ,-75.854       
747.42000      ,-77.666       
747.55000      ,-79.382       
747.68000      ,-78.696       
747.81000      ,-76.645       
747.94000      ,-78.801       
748.07000      ,-78.187       
748.20000      ,-77.549       
748.33000      ,-76.553       
748.46000      ,-75.490       
748.59000      ,-77.935       
748.72000      ,-77.544       
748.85000      ,-77.099       
748.98000      ,-76.222       
749.11000      ,-75.016       
749.24000      ,-80.170       
749.37000      ,-77.606       
749.50000      ,-79.629       
749.63000      ,-77.532       
749.76000      ,-81.472       
749.89000      ,-77.716       
750.02000      ,-79.223       
750.15000      ,-78.914       
750.28000      ,-77.214       
750.41000      ,-79.415       
750.54000      ,-79.977       
750.67000      ,-77.504       
750.80000      ,-80.078       
750.93000      ,-78.608       
751.06000      ,-78.391       
751.19000      ,-77.835       
751.32000      ,-77.051       
751.45000      ,-82.252       
751.58000      ,-81.824       
751.71000      ,-78.929       
751.84000      ,-82.507       
751.97000      ,-77.129       
752.10000      ,-83.500       
752.23000      ,-76.515       
752.36000      ,-79.010       
752.49000      ,-77.786       
752.62000      ,-79.727       
752.75000      ,-79.186       
752.88000      ,-78.439       
753.01000      ,-80.395       
753.14000      ,-80.226       
753.27000      ,-80.333       
753.40000      ,-78.273       
753.53000      ,-77.084       
753.66000      ,-78.254       
753.79000      ,-76.413       
753.92000      ,-84.952       
754.05000      ,-78.276       
754.18000      ,-77.181       
754.31000      ,-77.039       
754.44000      ,-76.054       
754.57000      ,-77.681       
754.70000      ,-78.970       
754.83000      ,-79.219       
754.96000      ,-80.424       
755.09000      ,-79.758       
755.22000      ,-79.333       
755.35000      ,-78.344       
755.48000      ,-77.499       
755.61000      ,-79.454       
755.74000      ,-82.368       
755.87000      ,-76.580       
756.00000      ,-79.632       
756.13000      ,-77.763       
756.26000      ,-79.996       
756.39000      ,-78.392       
756.52000      ,-80.086       
756.65000      ,-79.342       
756.78000      ,-80.408       
756.91000      ,-77.466       
757.04000      ,-78.413       
757.17000      ,-76.667       
757.30000      ,-75.535       
757.43000      ,-80.217       
757.56000      ,-79.929       
757.69000      ,-77.735       
757.82000      ,-76.961       
757.95000      ,-77.884       
758.08000      ,-77.443       
758.21000      ,-76.129       
758.34000      ,-77.076       
758.47000      ,-76.318       
758.60000      ,-77.516       
758.73000      ,-74.046       
758.86000      ,-74.530       
758.99000      ,-76.524       
759.12000      ,-76.034       
759.25000      ,-78.965       
759.38000      ,-77.499       
759.51000      ,-76.305       
759.64000      ,-76.580       
759.77000      ,-77.628       
759.90000      ,-77.788       
760.03000      ,-74.689       
760.16000      ,-76.018       
760.29000      ,-76.858       
760.42000      ,-77.514       
760.55000      ,-75.581       
760.68000      ,-74.045       
760.81000      ,-71.493       
760.94000      ,-72.495       
761.07000      ,-74.240       
761.20000      ,-75.382       
761.33000      ,-74.071       
761.46000      ,-73.916       
761.59000      ,-72.856       
761.72000      ,-73.665       
761.85000      ,-74.743       
761.98000      ,-71.820       
762.11000      ,-72.317       
762.24000      ,-71.449       
762.37000      ,-71.542       
762.50000      ,-72.278       
762.63000      ,-69.951       
762.76000      ,-71.740       
762.89000      ,-71.060       
763.02000      ,-70.155       
763.15000      ,-70.882       
763.28000      ,-72.660       
763.41000      ,-74.199       
763.54000      ,-73.946       
763.67000      ,-73.692       
763.80000      ,-72.783       
763.93000      ,-72.559       
764.06000      ,-69.544       
764.19000      ,-69.903       
764.32000      ,-73.754       
764.45000      ,-74.807       
764.58000      ,-71.918       
764.71000      ,-71.721       
764.84000      ,-70.175       
764.97000      ,-69.202       
765.10000      ,-69.955       
765.23000      ,-71.286       
765.36000      ,-70.664       
765.49000      ,-69.292       
765.62000      ,-67.132       
765.75000      ,-67.583       
765.88000      ,-69.325       
766.01000      ,-68.731       
766.14000      ,-66.837       
766.27000      ,-65.484       
766.40000      ,-67.229       
766.53000      ,-68.976       
766.66000      ,-69.240       
766.79000      ,-68.157       
766.92000      ,-66.765       
767.05000      ,-66.413       
767.18000      ,-65.200       
767.31000      ,-66.869       
767.44000      ,-69.322       
767.57000      ,-69.407       
767.70000      ,-68.438       
767.83000      ,-67.773       
767.96000      ,-68.186       
768.09000      ,-70.620       
768.22000      ,-72.177       
768.35000      ,-71.736       
768.48000      ,-69.996       
768.61000      ,-68.209       
768.74000      ,-66.708       
768.87000      ,-66.262       
769.00000      ,-67.106       
769.13000      ,-66.044       
769.26000      ,-66.753       
769.39000      ,-68.021       
769.52000      ,-69.838       
769.65000      ,-72.618       
769.78000      ,-72.679       
769.91000      ,-70.224       
770.04000      ,-67.202       
770.17000      ,-67.065       
770.30000      ,-67.152       
770.43000      ,-66.999       
770.56000      ,-66.475       
770.69000      ,-67.403       
770.82000      ,-65.716       
770.95000      ,-64.305       
771.08000      ,-65.152       
771.21000      ,-66.142       
771.34000      ,-66.682       
771.47000      ,-65.336       
771.60000      ,-65.147       
771.73000      ,-65.912       
771.86000      ,-65.698       
771.99000      ,-66.463       
772.12000      ,-65.807       
772.25000      ,-64.689       
772.38000      ,-63.609       
772.51000      ,-63.112       
772.64000      ,-64.079       
772.77000      ,-67.359       
772.90000      ,-66.212       
773.03000      ,-64.258       
773.16000      ,-65.140       
773.29000      ,-65.184       
773.42000      ,-64.925       
773.55000      ,-65.487       
773.68000      ,-67.793       
773.81000      ,-68.009       
773.94000      ,-65.088       
774.07000      ,-63.372       
774.20000      ,-64.362       
774.33000      ,-64.315       
774.46000      ,-64.748       
774.59000      ,-66.149       
774.72000      ,-67.257       
774.85000      ,-66.383       
774.98000      ,-63.829       
775.11000      ,-62.360       
775.24000      ,-62.943       
775.37000      ,-65.998       
775.50000      ,-67.301       
775.63000      ,-63.796       
775.76000      ,-63.165       
775.89000      ,-61.835       
776.02000      ,-61.981       
776.15000      ,-64.589       
776.28000      ,-67.103       
776.41000      ,-64.702       
776.54000      ,-62.557       
776.67000      ,-60.148       
776.80000      ,-59.628       
776.93000      ,-61.053       
777.06000      ,-63.877       
777.19000      ,-63.695       
777.32000      ,-62.248       
777.45000      ,-61.850       
777.58000      ,-61.396       
777.71000      ,-60.642       
777.84000      ,-62.022       
777.97000      ,-62.315       
778.10000      ,-62.453       
778.23000      ,-62.659       
778.36000      ,-62.597       
778.49000      ,-61.936       
778.62000      ,-64.735       
778.75000      ,-65.664       
778.88000      ,-62.783       
779.01000      ,-62.984       
779.14000      ,-66.535       
779.27000      ,-66.621       
779.40000      ,-63.944       
779.53000      ,-63.016       
779.66000      ,-62.580       
779.79000      ,-63.910       
779.92000      ,-65.153       
780.05000      ,-64.433       
780.18000      ,-63.405       
780.31000      ,-64.254       
780.44000      ,-65.317       
780.57000      ,-63.918       
780.70000      ,-63.604       
780.83000      ,-65.027       
780.96000      ,-65.231       
781.09000      ,-64.434       
781.22000      ,-64.194       
781.35000      ,-62.495       
781.48000      ,-60.174       
781.61000      ,-60.173       
781.74000      ,-62.249       
781.87000      ,-61.068       
782.00000      ,-60.497       
782.13000      ,-63.860       
782.26000      ,-65.026       
782.39000      ,-64.979       
782.52000      ,-64.360       
782.65000      ,-62.835       
782.78000      ,-61.349       
782.91000      ,-60.116       
783.04000      ,-60.300       
783.17000      ,-61.701       
783.30000      ,-62.869       
783.43000      ,-63.433       
783.56000      ,-61.653       
783.69000      ,-60.751       
783.82000      ,-61.171       
783.95000      ,-59.543       
784.08000      ,-58.220       
784.21000      ,-59.461       
784.34000      ,-60.618       
784.47000      ,-59.216       
784.60000      ,-61.204       
784.73000      ,-62.129       
784.86000      ,-62.248       
784.99000      ,-62.061       
785.12000      ,-63.446       
785.25000      ,-63.079       
785.38000      ,-60.758       
785.51000      ,-60.088       
785.64000      ,-61.416       
785.77000      ,-59.947       
785.90000      ,-60.703       
786.03000      ,-60.717       
786.16000      ,-60.947       
786.29000      ,-62.496       
786.42000      ,-59.572       
786.55000      ,-56.759       
786.68000      ,-57.327       
786.81000      ,-59.846       
786.94000      ,-60.179       
787.07000      ,-59.589       
787.20000      ,-60.052       
787.33000      ,-59.103       
787.46000      ,-58.880       
787.59000      ,-58.968       
787.72000      ,-58.110       
787.85000      ,-58.307       
787.98000      ,-58.443       
788.11000      ,-56.964       
788.24000      ,-57.287       
788.37000      ,-57.946       
788.50000      ,-57.005       
788.63000      ,-56.866       
788.76000      ,-57.271       
788.89000      ,-56.837       
789.02000      ,-59.429       
789.15000      ,-59.483       
789.28000      ,-59.125       
789.41000      ,-60.609       
789.54000      ,-60.040       
789.67000      ,-60.256       
789.80000      ,-60.359       
789.93000      ,-60.266       
790.06000      ,-60.380       
790.19000      ,-60.749       
790.32000      ,-61.144       
790.45000      ,-59.186       
790.58000      ,-59.127       
790.71000      ,-59.104       
790.84000      ,-57.846       
790.97000      ,-58.318       
791.10000      ,-59.104       
791.23000      ,-59.391       
791.36000      ,-61.514       
791.49000      ,-60.922       
791.62000      ,-59.495       
791.75000      ,-59.613       
791.88000      ,-62.217       
792.01000      ,-61.534       
792.14000      ,-59.056       
792.27000      ,-58.214       
792.40000      ,-59.039       
792.53000      ,-61.796       
792.66000      ,-59.917       
792.79000      ,-60.078       
792.92000      ,-61.626       
793.05000      ,-59.439       
793.18000      ,-58.567       
793.31000      ,-57.409       
793.44000      ,-58.077       
793.57000      ,-61.809       
793.70000      ,-61.848       
793.83000      ,-63.243       
793.96000      ,-64.908       
794.09000      ,-62.901       
794.22000      ,-59.622       
794.35000      ,-58.544       
794.48000      ,-57.627       
794.61000      ,-59.851       
794.74000      ,-60.754       
794.87000      ,-59.500       
795.00000      ,-61.754       
795.13000      ,-59.738       
795.26000      ,-59.500       
795.39000      ,-59.978       
795.52000      ,-59.284       
795.65000      ,-60.680       
795.78000      ,-59.710       
795.91000      ,-55.973       
796.04000      ,-56.302       
796.17000      ,-58.574       
796.30000      ,-60.508       
796.43000      ,-63.865       
796.56000      ,-59.960       
796.69000      ,-57.721       
796.82000      ,-55.909       
796.95000      ,-56.677       
797.08000      ,-60.449       
797.21000      ,-61.310       
797.34000      ,-59.219       
797.47000      ,-57.063       
797.60000      ,-57.463       
797.73000      ,-60.557       
797.86000      ,-63.761       
797.99000      ,-65.498       
798.12000      ,-65.228       
798.25000      ,-63.262       
798.38000      ,-63.826       
798.51000      ,-62.124       
798.64000      ,-60.288       
798.77000      ,-61.337       
798.90000      ,-63.036       
799.03000      ,-59.006       
799.16000      ,-57.127       
799.29000      ,-58.131       
799.42000      ,-59.930       
799.55000      ,-59.841       
799.68000      ,-59.223       
799.81000      ,-60.925       
799.94000      ,-62.900       
800.07000      ,-62.226       
800.20000      ,-61.908       
800.33000      ,-62.811       
800.46000      ,-62.243       
800.59000      ,-60.090       
800.72000      ,-60.031       
800.85000      ,-59.806       
800.98000      ,-62.205       
801.11000      ,-61.858       
801.24000      ,-62.555       
801.37000      ,-65.759       
801.50000      ,-63.364       
801.63000      ,-61.265       
801.76000      ,-61.376       
801.89000      ,-62.614       
802.02000      ,-63.462       
802.15000      ,-62.654       
802.28000      ,-61.639       
802.41000      ,-62.014       
802.54000      ,-62.295       
802.67000      ,-62.636       
802.80000      ,-63.050       
802.93000      ,-62.652       
803.06000      ,-64.176       
803.19000      ,-64.954       
803.32000      ,-65.596       
803.45000      ,-63.520       
803.58000      ,-62.706       
803.71000      ,-63.592       
803.84000      ,-64.429       
803.97000      ,-64.545       
804.10000      ,-62.645       
804.23000      ,-62.555       
804.36000      ,-63.072       
804.49000      ,-64.159       
804.62000      ,-64.892       
804.75000      ,-65.121       
804.88000      ,-67.606       
805.01000      ,-64.268       
805.14000      ,-61.791       
805.27000      ,-61.751       
805.40000      ,-62.910       
805.53000      ,-62.701       
805.66000      ,-62.730       
805.79000      ,-63.371       
805.92000      ,-64.100       
806.05000      ,-64.250       
806.18000      ,-65.467       
806.31000      ,-68.050       
806.44000      ,-67.066       
806.57000      ,-63.356       
806.70000      ,-62.151       
806.83000      ,-63.270       
806.96000      ,-65.221       
807.09000      ,-64.707       
807.22000      ,-64.940       
807.35000      ,-68.564       
807.48000      ,-68.570       
807.61000      ,-65.744       
807.74000      ,-64.166       
807.87000      ,-65.135       
808.00000      ,-64.378       
808.13000      ,-63.195       
808.26000      ,-63.796       
808.39000      ,-63.711       
808.52000      ,-63.168       
808.65000      ,-63.393       
808.78000      ,-65.716       
808.91000      ,-67.569       
809.04000      ,-65.830       
809.17000      ,-65.068       
809.30000      ,-66.194       
809.43000      ,-67.400       
809.56000      ,-67.441       
809.69000      ,-67.134       
809.82000      ,-69.182       
809.95000      ,-69.053       
810.08000      ,-65.329       
810.21000      ,-64.400       
810.34000      ,-65.592       
810.47000      ,-69.651       
810.60000      ,-71.929       
810.73000      ,-68.423       
810.86000      ,-66.605       
810.99000      ,-66.203       
811.12000      ,-66.661       
811.25000      ,-69.589       
811.38000      ,-70.097       
811.51000      ,-68.927       
811.64000      ,-69.688       
811.77000      ,-68.620       
811.90000      ,-66.514       
812.03000      ,-65.752       
812.16000      ,-64.751       
812.29000      ,-64.982       
812.42000      ,-66.764       
812.55000      ,-71.267       
812.68000      ,-71.119       
812.81000      ,-69.815       
812.94000      ,-69.549       
813.07000      ,-70.095       
813.20000      ,-71.349       
813.33000      ,-71.238       
813.46000      ,-70.701       
813.59000      ,-70.292       
813.72000      ,-71.016       
813.85000      ,-72.311       
813.98000      ,-73.725       
814.11000      ,-75.902       
814.24000      ,-77.505       
814.37000      ,-74.178       
814.50000      ,-70.825       
814.63000      ,-70.839       
814.76000      ,-71.911       
814.89000      ,-70.746       
815.02000      ,-71.483       
815.15000      ,-72.424       
815.28000      ,-72.637       
815.41000      ,-71.861       
815.54000      ,-70.789       
815.67000      ,-71.670       
815.80000      ,-72.953       
815.93000      ,-75.845       
816.06000      ,-76.746       
816.19000      ,-75.167       
816.32000      ,-75.794       
816.45000      ,-76.853       
816.58000      ,-77.973       
816.71000      ,-76.113       
816.84000      ,-74.155       
816.97000      ,-73.678       
817.10000      ,-73.839       
817.23000      ,-74.349       
817.36000      ,-75.546       
817.49000      ,-75.789       
817.62000      ,-77.488       
817.75000      ,-77.410       
817.88000      ,-77.358       
818.01000      ,-76.614       
818.14000      ,-75.643       
818.27000      ,-76.053       
818.40000      ,-75.712       
818.53000      ,-75.465       
818.66000      ,-77.213       
818.79000      ,-77.727       
818.92000      ,-77.599       
819.05000      ,-76.967       
819.18000      ,-77.272       
819.31000      ,-76.948       
819.44000      ,-76.590       
819.57000      ,-76.601       
819.70000      ,-77.749       
819.83000      ,-79.641       
819.96000      ,-79.862       
820.09000      ,-78.515       
820.22000      ,-80.146       
820.35000      ,-79.286       
820.48000      ,-82.149       
820.61000      ,-80.042       
820.74000      ,-80.617       
820.87000      ,-81.222       
821.00000      ,-80.924       
821.13000      ,-79.032       
821.26000      ,-83.255       
821.39000      ,-81.749       
821.52000      ,-82.472       
821.65000      ,-82.900       
821.78000      ,-80.530       
821.91000      ,-81.417       
822.04000      ,-82.110       
822.17000      ,-81.094       
822.30000      ,-83.900       
822.43000      ,-81.851       
822.56000      ,-82.457       
822.69000      ,-83.783       
822.82000      ,-82.089       
822.95000      ,-82.787       
823.08000      ,-83.461       
823.21000      ,-83.366       
823.34000      ,-83.132       
823.47000      ,-85.694       
823.60000      ,-84.295       
823.73000      ,-81.547       
823.86000      ,-82.193       
823.99000      ,-83.813       
824.12000      ,-81.537       
824.25000      ,-87.826       
824.38000      ,-84.983       
824.51000      ,-84.650       
824.64000      ,-82.298       
824.77000      ,-83.239       
824.90000      ,-81.425       
825.03000      ,-81.195       
825.16000      ,-82.595       
825.29000      ,-86.057       
825.42000      ,-82.882       
825.55000      ,-80.416       
825.68000      ,-83.373       
825.81000      ,-84.981       
825.94000      ,-82.337       
826.07000      ,-81.895       
826.20000      ,-82.709       
826.33000      ,-84.416       
826.46000      ,-84.323       
826.59000      ,-80.671       
826.72000      ,-84.862       
826.85000      ,-81.816       
826.98000      ,-84.508       
827.11000      ,-81.801       
827.24000      ,-80.926       
827.37000      ,-79.982       
827.50000      ,-81.463       
827.63000      ,-84.031       
827.76000      ,-82.221       
827.89000      ,-81.477       
828.02000      ,-82.002       
828.15000      ,-80.101       
828.28000      ,-83.970       
828.41000      ,-84.543       
828.54000      ,-82.281       
828.67000      ,-83.128       
828.80000      ,-84.272       
828.93000      ,-84.215       
829.06000      ,-87.160       
829.19000      ,-82.126       
829.32000      ,-80.718       
829.45000      ,-82.368       
829.58000      ,-80.187       
829.71000      ,-80.938       
829.84000      ,-78.704       
829.97000      ,-77.676       
830.10000      ,-78.027       
830.23000      ,-78.841       
830.36000      ,-78.346       
830.49000      ,-78.451       
830.62000      ,-77.732       
830.75000      ,-78.086       
830.88000      ,-79.508       
831.01000      ,-78.573       
831.14000      ,-78.380       
831.27000      ,-79.005       
831.40000      ,-78.412       
831.53000      ,-77.270       
831.66000      ,-77.653       
831.79000      ,-77.813       
831.92000      ,-79.739       
832.05000      ,-80.944       
832.18000      ,-81.564       
832.31000      ,-81.435       
832.44000      ,-83.847       
832.57000      ,-83.097       
832.70000      ,-79.549       
832.83000      ,-77.413       
832.96000      ,-78.432       
833.09000      ,-80.482       
833.22000      ,-80.209       
833.35000      ,-81.449       
833.48000      ,-82.122       
833.61000      ,-81.391       
833.74000      ,-79.521       
833.87000      ,-78.894       
834.00000      ,-77.855       
834.13000      ,-78.215       
834.26000      ,-78.488       
834.39000      ,-78.751       
834.52000      ,-76.771       
834.65000      ,-74.829       
834.78000      ,-72.989       
834.91000      ,-70.660       
835.04000      ,-66.110       
835.17000      ,-62.668       
835.30000      ,-63.568       
835.43000      ,-63.690       
835.56000      ,-70.608       
835.69000      ,-73.422       
835.82000      ,-74.818       
835.95000      ,-77.464       
836.08000      ,-77.874       
836.21000      ,-80.062       
836.34000      ,-83.082       
836.47000      ,-87.185       
836.60000      ,-82.650       
836.73000      ,-81.829       
836.86000      ,-84.816       
836.99000      ,-83.323       
837.12000      ,-84.242       
837.25000      ,-80.950       
837.38000      ,-86.065       
837.51000      ,-84.690       
837.64000      ,-82.381       
837.77000      ,-84.611       
837.90000      ,-83.071       
838.03000      ,-82.844       
838.16000      ,-84.391       
838.29000      ,-83.938       
838.42000      ,-82.857       
838.55000      ,-83.090       
838.68000      ,-86.243       
838.81000      ,-83.547       
838.94000      ,-85.896       
839.07000      ,-82.520       
839.20000      ,-84.055       
839.33000      ,-84.205       
839.46000      ,-83.605       
839.59000      ,-82.254       
839.72000      ,-85.417       
839.85000      ,-87.688       
839.98000      ,-82.093       
840.11000      ,-85.128       
840.24000      ,-84.160       
840.37000      ,-87.297       
840.50000      ,-84.608       
840.63000      ,-82.631       
840.76000      ,-82.817       
840.89000      ,-83.281       
841.02000      ,-87.626       
841.15000      ,-85.614       
841.28000      ,-83.514       
841.41000      ,-83.557       
841.54000      ,-83.382       
841.67000      ,-85.194       
841.80000      ,-84.313       
841.93000      ,-84.772       
842.06000      ,-83.050       
842.19000      ,-83.698       
842.32000      ,-83.629       
842.45000      ,-83.080       
842.58000      ,-84.105       
842.71000      ,-83.653       
842.84000      ,-84.132       
842.97000      ,-85.092       
843.10000      ,-88.158       
843.23000      ,-84.624       
843.36000      ,-86.026       
843.49000      ,-83.423       
843.62000      ,-82.105       
843.75000      ,-83.599       
843.88000      ,-84.539       
844.01000      ,-83.840       
844.14000      ,-83.938       
844.27000      ,-87.110       
844.40000      ,-83.147       
844.53000      ,-86.465       
844.66000      ,-84.288       
844.79000      ,-83.059       
844.92000      ,-84.626       
845.05000      ,-83.711       
845.18000      ,-84.031       
845.31000      ,-85.781       
845.44000      ,-87.401       
845.57000      ,-84.422       
845.70000      ,-86.504       
845.83000      ,-87.704       
845.96000      ,-86.808       
846.09000      ,-88.084       
846.22000      ,-84.698       
846.35000      ,-83.470       
846.48000      ,-85.231       
846.61000      ,-84.828       
846.74000      ,-86.651       
846.87000      ,-83.881       
847.00000      ,-85.095       
847.13000      ,-84.953       
847.26000      ,-84.381       
847.39000      ,-85.917       
847.52000      ,-84.154       
847.65000      ,-82.160       
847.78000      ,-84.772       
847.91000      ,-83.911       
848.04000      ,-84.674       
848.17000      ,-83.251       
848.30000      ,-86.379       
848.43000      ,-83.059       
848.56000      ,-87.201       
848.69000      ,-84.742       
848.82000      ,-84.905       
848.95000      ,-85.041       
849.08000      ,-84.704       
849.21000      ,-89.497       
849.34000      ,-86.115       
849.47000      ,-87.265       
849.60000      ,-84.461       
849.73000      ,-83.408       
849.86000      ,-84.759       
849.99000      ,-84.967       
850.12000      ,-84.675       
850.25000      ,-83.450       
850.38000      ,-84.614       
850.51000      ,-86.807       
850.64000      ,-87.658       
850.77000      ,-84.531       
850.90000      ,-84.004       
851.03000      ,-88.301       
851.16000      ,-90.408       
851.29000      ,-85.120       
851.42000      ,-84.928       
851.55000      ,-85.098       
851.68000      ,-84.946       
851.81000      ,-83.521       
851.94000      ,-86.963       
852.07000      ,-88.308       
852.20000      ,-86.335       
852.33000      ,-86.122       
852.46000      ,-84.383       
852.59000      ,-86.327       
852.72000      ,-82.929       
852.85000      ,-84.973       
852.98000      ,-89.026       
853.11000      ,-85.317       
853.24000      ,-85.389       
853.37000      ,-84.765       
853.50000      ,-86.497       
853.63000      ,-82.073       
853.76000      ,-84.972       
853.89000      ,-84.716       
854.02000      ,-88.424       
854.15000      ,-84.548       
854.28000      ,-88.483       
854.41000      ,-84.647       
854.54000      ,-82.454       
854.67000      ,-84.902       
854.80000      ,-86.682       
854.93000      ,-83.457       
855.06000      ,-86.525       
855.19000      ,-85.392       
855.32000      ,-85.852       
855.45000      ,-84.379       
855.58000      ,-86.985       
855.71000      ,-83.433       
855.84000      ,-86.379       
855.97000      ,-87.021       
856.10000      ,-86.018       
856.23000      ,-85.717       
856.36000      ,-88.447       
856.49000      ,-83.997       
856.62000      ,-86.573       
856.75000      ,-85.189       
856.88000      ,-83.412       
857.01000      ,-83.860       
857.14000      ,-87.721       
857.27000      ,-87.336       
857.40000      ,-83.821       
857.53000      ,-86.360       
857.66000      ,-83.656       
857.79000      ,-84.904       
857.92000      ,-86.593       
858.05000      ,-85.191       
858.18000      ,-87.941       
858.31000      ,-84.146       
858.44000      ,-83.409       
858.57000      ,-82.418       
858.70000      ,-86.377       
858.83000      ,-85.826       
858.96000      ,-85.885       
859.09000      ,-85.817       
859.22000      ,-84.701       
859.35000      ,-87.416       
859.48000      ,-82.842       
859.61000      ,-83.340       
859.74000      ,-86.662       
859.87000      ,-83.466       
860.00000      ,-83.731